angle,intensity
10.0,1.6073335409164429
10.015559013114025,1.6073335409164429
10.03111802622805,1.6073335409164429
10.046677039342075,1.6073335409164429
10.062236052456102,1.6073335409164429
10.077795065570127,1.6073335409164429
10.093354078684152,1.6073335409164429
10.108913091798177,1.6073335409164429
10.124472104912202,1.7274073516662314
10.140031118026227,2.1451484883578877
10.155590131140253,2.562889625049544
10.17114914425428,2.9806307617412475
10.186708157368304,3.398371898432903
10.20226717048233,3.81611303512456
10.217826183596355,4.2338541718162155
10.23338519671038,4.651595308507872
10.248944209824405,4.696305435148043
10.26450322293843,4.465152374232921
10.280062236052457,4.233999313317773
10.295621249166482,4.002846252402652
10.311180262280507,3.7716931914875307
10.326739275394532,3.540540130572409
10.342298288508557,3.309387069657287
10.357857301622582,3.078234008742166
10.373416314736609,3.1240598079886763
10.388975327850634,3.2141132426475814
10.40453434096466,3.304166677306486
10.420093354078684,3.39422011196539
10.43565236719271,3.484273546624295
10.451211380306734,3.574326981283199
10.46677039342076,3.664380415942104
10.482329406534786,3.7369078470484127
10.497888419648811,3.709921281012042
10.513447432762836,3.682934714975672
10.529006445876862,3.655948148939302
10.544565458990887,3.6289615829029316
10.560124472104912,3.601975016866562
10.575683485218937,3.5749884508301912
10.591242498332964,3.548001884793818
10.606801511446989,3.521267087181965
10.622360524561014,3.4948564942900378
10.637919537675039,3.46844590139811
10.653478550789064,3.442035308506182
10.669037563903089,3.4156247156142543
10.684596577017114,3.389214122722326
10.700155590131141,3.3628035298303955
10.715714603245166,3.3363929369384677
10.731273616359191,3.2164491755879117
10.746832629473216,3.0609479502676944
10.762391642587241,2.9054467249474767
10.777950655701266,2.74994549962726
10.793509668815293,2.5944442743070244
10.809068681929318,2.438943048986807
10.824627695043343,2.28344182366659
10.840186708157368,2.1312592674985296
10.855745721271393,2.2525400058798573
10.871304734385419,2.3738207442611854
10.886863747499444,2.4951014826425135
10.90242276061347,2.616382221023856
10.917981773727496,2.737662959405184
10.93354078684152,2.858943697786512
10.949099799955546,2.9802244361678403
10.96465881306957,3.0725957061909632
10.980217826183596,3.0973268570137757
10.995776839297621,3.1220580078365887
11.011335852411648,3.146789158659404
11.026894865525673,3.171520309482217
11.042453878639698,3.19625146030503
11.058012891753723,3.2209826111278423
11.073571904867748,3.245713761950655
11.089130917981773,3.4984008934805266
11.104689931095798,3.911564014157191
11.120248944209825,4.324727134833902
11.13580795732385,4.737890255510566
11.151366970437875,5.151053376187229
11.1669259835519,5.564216496863893
11.182484996665925,5.9773796175405565
11.19804400977995,6.390542738217221
11.213603022893977,5.896355650299288
11.229162036008002,5.271714456515543
11.244721049122028,4.647073262731798
11.260280062236053,4.022432068948054
11.275839075350078,3.3977908751643087
11.291398088464103,2.7731496813805636
11.306957101578128,2.148508487596819
11.322516114692153,1.5949448276780325
11.33807512780618,1.409775717074615
11.353634140920205,1.2246066064712189
11.36919315403423,1.0394374958678225
11.384752167148255,0.8542683852644264
11.40031118026228,0.66909927466103
11.415870193376305,0.4839301640576339
11.431429206490332,0.29876105345421655
11.446988219604357,0.3030881046345354
11.462547232718382,0.5397998742698829
11.478106245832407,0.7765116439052302
11.493665258946432,1.0132234135405778
11.509224272060457,1.2499351831759251
11.524783285174482,1.4866469528112727
11.54034229828851,1.723358722446647
11.555901311402534,1.9600704920819945
11.57146032451656,2.3209176209609064
11.587019337630585,2.726166887134151
11.60257835074461,3.131416153307396
11.618137363858635,3.5366654194806406
11.633696376972662,3.941914685653931
11.649255390086687,4.347163951827176
11.664814403200712,4.752413218000421
11.680373416314737,5.140288285657474
11.695932429428762,4.821020499576978
11.711491442542787,4.501752713496484
11.727050455656812,4.182484927415989
11.742609468770837,3.863217141335493
11.758168481884864,3.5439493552549624
11.773727494998889,3.224681569174467
11.789286508112914,2.9054137830939726
11.80484552122694,2.636774870882113
11.820404534340964,2.4800832627854925
11.83596354745499,2.3233916546888715
11.851522560569016,2.166700046592233
11.867081573683041,2.010008438495612
11.882640586797066,1.8533168303989909
11.898199599911091,1.6966252223023701
11.913758613025117,1.5399336142057491
11.929317626139142,1.7999981337018398
11.944876639253167,2.339231330118965
11.960435652367194,2.8784645265361513
11.975994665481219,3.4176977229532763
11.991553678595244,3.956930919370401
12.007112691709269,4.496164115787526
12.022671704823294,5.03539731220465
12.038230717937319,5.574630508621776
12.053789731051346,5.079202369172205
12.06934874416537,4.451025940249939
12.084907757279396,3.8228495113276737
12.100466770393421,3.1946730824054086
12.116025783507446,2.566496653483143
12.131584796621471,1.938320224560877
12.147143809735496,1.3101437956386117
12.162702822849521,0.794508912663528
12.178261835963548,0.8141502052894302
12.193820849077573,0.83379149791533
12.209379862191598,0.85343279054123
12.224938875305623,0.87307408316713
12.240497888419648,0.8927153757930297
12.256056901533675,0.912356668418932
12.2716159146477,0.931997961044832
12.287174927761725,1.1199860083548783
12.30273394087575,1.5046779289149126
12.318292953989776,1.8893698494749467
12.3338519671038,2.2740617700349812
12.349410980217826,2.658753690595015
12.36496999333185,3.0434456111550494
12.380529006445876,3.4281375317150844
12.396088019559903,3.812829452275162
12.411647032673928,3.9411104963129273
12.427206045787953,3.983280021671437
12.442765058901978,4.025449547029946
12.458324072016003,4.067619072388455
12.47388308513003,4.109788597746969
12.489442098244055,4.151958123105478
12.50500111135808,4.194127648463987
12.520560124472105,4.244764888601099
12.53611913758613,4.522341100297819
12.551678150700155,4.7999173119945375
12.56723716381418,5.077493523691256
12.582796176928206,5.355069735387975
12.598355190042232,5.632645947084725
12.613914203156257,5.910222158781444
12.629473216270283,6.187798370478164
12.645032229384308,6.296411499090916
12.660591242498333,6.051539707527836
12.676150255612358,5.806667915964757
12.691709268726385,5.56179612440165
12.70726828184041,5.316924332838569
12.722827294954435,5.07205254127549
12.73838630806846,4.8271807497124115
12.753945321182485,4.582308958149332
12.76950433429651,4.34128225093341
12.785063347410535,4.102705183089364
12.80062236052456,3.86412811524532
12.816181373638587,3.6255510474012476
12.831740386752612,3.3869739795572027
12.847299399866637,3.148396911713158
12.862858412980662,2.909819843869113
12.878417426094687,2.671242776025068
12.893976439208714,2.6621913460326656
12.90953545232274,2.6791315524843444
12.925094465436764,2.6960717589360237
12.94065347855079,2.713011965387703
12.956212491664814,2.7299521718393818
12.97177150477884,2.7468923782910606
12.987330517892865,2.76383258474274
13.00288953100689,2.8288525936484663
13.018448544120915,3.104684044083535
13.034007557234942,3.380515494518635
13.049566570348967,3.656346944953704
13.065125583462992,3.9321783953887723
13.080684596577017,4.208009845823841
13.096243609691042,4.48384129625891
13.111802622805069,4.75967274669401
13.127361635919094,4.667218036662045
13.142920649033119,4.164679001791592
13.158479662147144,3.662139966921139
13.17403867526117,3.1596009320506866
13.189597688375194,2.657061897180234
13.20515670148922,2.154522862309781
13.220715714603244,1.651983827439328
13.236274727717271,1.1494447925688176
13.251833740831296,1.2086895161388664
13.267392753945321,1.4447699873773696
13.282951767059346,1.6808504586158728
13.298510780173372,1.916930929854376
13.314069793287398,2.153011401092906
13.329628806401423,2.389091872331409
13.345187819515449,2.625172343569912
13.360746832629474,2.8400654206857436
13.376305845743499,2.6349446701452526
13.391864858857524,2.4298239196047606
13.407423871971549,2.224703169064269
13.422982885085574,2.0195824185237776
13.438541898199599,1.8144616679832861
13.454100911313626,1.609340917442771
13.469659924427651,1.4042201669022796
13.485218937541676,1.3598889254303363
13.500777950655701,1.634081569227287
13.516336963769726,1.9082742130242378
13.531895976883753,2.1824668568212195
13.547454989997778,2.45665950061817
13.563014003111803,2.7308521444151204
13.578573016225828,3.0050447882120714
13.594132029339853,3.279237432009022
13.609691042453878,3.150318228948897
13.625250055567903,2.777287476743717
13.640809068681929,2.4042567245385356
13.656368081795955,2.031225972333312
13.67192709490998,1.6581952201281314
13.687486108024006,1.2851644679229506
13.70304512113803,0.9121337157177696
13.718604134252056,0.5391029635125887
13.734163147366083,0.4927969203410969
13.749722160480108,0.4786983847100425
13.765281173594133,0.46459984907898794
13.780840186708158,0.45050131344793354
13.796399199822183,0.43640277781687903
13.811958212936208,0.42230424218582463
13.827517226050233,0.4082057065547702
13.843076239164258,0.4305268354171975
13.858635252278283,0.600640942504292
13.87419426539231,0.770755049591406
13.889753278506335,0.9408691566785004
13.90531229162036,1.1109832637655948
13.920871304734385,1.2810973708526892
13.93643031784841,1.4512114779397838
13.951989330962437,1.6213255850268977
13.967548344076462,1.6524819458546602
13.983107357190487,1.5361681555379594
13.998666370304512,1.4198543652212585
14.014225383418538,1.3035405749045579
14.029784396532563,1.187226784587857
14.045343409646588,1.0709129942711562
14.060902422760613,0.9545992039544554
14.076461435874638,0.8382854136377546
14.092020448988665,1.823570193560938
14.10757946210269,3.133133076499927
14.123138475216715,4.442695959438915
14.13869748833074,5.752258842377904
14.154256501444767,7.061821725317042
14.169815514558792,8.37138460825603
14.185374527672817,9.680947491195019
14.200933540786842,10.842647727621339
14.216492553900867,9.68833657108967
14.232051567014892,8.534025414558004
14.247610580128917,7.379714258026335
14.263169593242942,6.225403101494667
14.278728606356967,5.071091944963
14.294287619470992,3.916780788431333
14.30984663258502,2.762469631899534
14.325405645699044,1.9233824447958348
14.34096465881307,1.6763259022534174
14.356523671927096,1.429269359710972
14.372082685041121,1.1822128171685544
14.387641698155146,0.9351562746261372
14.403200711269172,0.6880997320837199
14.418759724383197,0.4410431895413026
14.434318737497222,0.19398664699888535
14.449877750611247,0.2759796604602174
14.465436763725272,0.5472059819387626
14.480995776839297,0.8184323034173078
14.496554789953322,1.089658624895853
14.512113803067349,1.3608849463744292
14.527672816181374,1.6321112678529743
14.543231829295399,1.9033375893315196
14.558790842409424,2.174563910810065
14.574349855523451,2.0867393462087436
14.589908868637476,1.9686487996638644
14.605467881751501,1.8505582531189857
14.621026894865526,1.7324677065741065
14.636585907979551,1.6143771600292274
14.652144921093576,1.4962866134843487
14.667703934207601,1.3781960669394697
14.683262947321627,1.4231670290259522
14.698821960435652,2.082690464578021
14.714380973549677,2.74221390013009
14.729939986663704,3.4017373356822347
14.745498999777729,4.061260771234303
14.761058012891754,4.720784206786372
14.77661702600578,5.380307642338517
14.792176039119806,6.039831077890585
14.80773505223383,6.054617272087149
14.823294065347856,5.417223471992547
14.83885307846188,4.779829671897947
14.854412091575906,4.142435871803345
14.869971104689931,3.505042071708745
14.885530117803956,2.8676482716141436
14.901089130917981,2.230254471519542
14.916648144032006,1.5928606714249411
14.932207157146031,1.3621143123995478
14.947766170260058,1.243028938786712
14.963325183374083,1.1239435651738896
14.978884196488108,1.0048581915610675
14.994443209602135,0.8857728179482314
15.01000222271616,0.766687444335409
15.025561235830185,0.6476020707225867
15.04112024894421,0.5449960782422416
15.056679262058235,0.6547832045173381
15.07223827517226,0.7645703307924345
15.087797288286286,0.8743574570675312
15.10335630140031,0.9841445833426277
15.118915314514336,1.093931709617724
15.13447432762836,1.2037188358928206
15.150033340742388,1.3135059621679297
15.165592353856413,1.3516273327347583
15.181151366970438,1.262031866607613
15.196710380084465,1.1724364004804575
15.21226939319849,1.0828409343533125
15.227828406312515,0.9932454682261672
15.24338741942654,0.9036500020990221
15.258946432540565,0.8140545359718769
15.27450544565459,0.724459069844732
15.290064458768615,0.7829225919092456
15.30562347188264,0.9222108316365569
15.321182484996665,1.0614990713638681
15.33674149811069,1.2007873110911795
15.352300511224716,1.3400755508184907
15.367859524338742,1.479363790545818
15.383418537452767,1.618652030273129
15.398977550566793,1.7579402700004403
15.41453656368082,1.6546633088920921
15.430095576794844,1.5343319998267417
15.44565458990887,1.4140006907613916
15.461213603022895,1.2936693816960416
15.47677261613692,1.1733380726306915
15.492331629250945,1.053006763565341
15.50789064236497,0.9326754544999911
15.523449655478995,0.8697645681476889
15.53900866859302,1.008451495710593
15.554567681707045,1.1471384232734971
15.570126694821072,1.2858253508364172
15.585685707935097,1.4245122783993214
15.601244721049122,1.5631992059622255
15.616803734163147,1.7018861335251296
15.632362747277174,1.8405730610880495
15.647921760391199,2.045122911754356
15.663480773505224,2.313175844848769
15.67903978661925,2.5812287779431813
15.694598799733274,2.849281711037594
15.7101578128473,3.117334644132007
15.725716825961324,3.385387577226419
15.74127583907535,3.653440510320832
15.756834852189375,3.921493443415244
15.7723938653034,3.67291560981456
15.787952878417427,3.2923885296908546
15.803511891531452,2.9118614495671924
15.819070904645477,2.53133436944353
15.834629917759504,2.150807289319825
15.850188930873529,1.7702802091961627
15.865747943987554,1.3897531290725005
15.881306957101579,1.0309830995862816
15.896865970215604,0.9094912089163426
15.912424983329629,0.7879993182464035
15.927983996443654,0.6665074275764643
15.94354300955768,0.5450155369065253
15.959102022671704,0.4235236462365861
15.97466103578573,0.302031755566647
15.990220048899756,0.18053986489669405
16.00577906201378,0.39605514092942956
16.021338075127808,1.1818902375362714
16.03689708824183,1.9677253341427545
16.052456101355858,2.7535604307495967
16.068015114469883,3.5393955273562585
16.08357412758391,4.325230623962922
16.099133140697933,5.1110657205695835
16.11469215381196,5.896900817176245
16.130251166925984,5.790132571642729
16.14581018004001,5.221081510216812
16.161369193154034,4.652030448790894
16.17692820626806,4.082979387364976
16.192487219382084,3.513928325939059
16.20804623249611,2.9448772645131407
16.223605245610138,2.375826203087093
16.23916425872416,1.8067751416613052
16.254723271838188,1.5926984610943224
16.270282284952213,1.3987654610556581
16.285841298066238,1.2048324610169943
16.301400311180263,1.01089946097833
16.316959324294288,0.8169664609396657
16.332518337408313,0.6230334609010015
16.34807735052234,0.42910046086233733
16.363636363636363,0.3427380735029758
16.37919537675039,0.6091477981364766
16.394754389864413,0.8755575227699774
16.41031340297844,1.1419672474034783
16.425872416092467,1.4083769720370403
16.44143142920649,1.67478669667048
16.456990442320517,1.9411964213040416
16.472549455434542,2.2076061459375427
16.488108468548567,2.218737340593471
16.503667481662593,1.9953310473338197
16.519226494776618,1.7719247540741683
16.534785507890643,1.5485184608145166
16.550344521004668,1.3251121675548654
16.565903534118693,1.101705874295214
16.581462547232718,0.8782995810355625
16.597021560346743,0.654893287775911
16.612580573460768,0.606799159942529
16.628139586574797,0.6002166069610739
16.64369859968882,0.5936340539796219
16.659257612802847,0.5870515009981669
16.674816625916872,0.5804689480167136
16.690375639030897,0.57388639503526
16.705934652144922,0.5673038420538065
16.721493665258947,0.560433968460971
16.737052678372972,0.5508598676740152
16.752611691486997,0.5412857668870594
16.768170704601022,0.5317116661001036
16.783729717715048,0.5221375653131477
16.799288730829073,0.5125634645261918
16.814847743943098,0.5029893637392361
16.830406757057123,0.49341526295228033
16.845965770171148,0.4898486148493321
16.861524783285176,0.4959426379050268
16.877083796399198,0.5020366609607186
16.892642809513227,0.5081306840164134
16.90820182262725,0.5142247070721067
16.923760835741277,0.5203187301277999
16.939319848855302,0.5264127531834932
16.954878861969327,0.5325067762391865
16.970437875083352,0.5245783951506781
16.985996888197377,0.5097720305938208
17.001555901311402,0.4949656660369637
17.017114914425427,0.4801593014801064
17.032673927539452,0.4653529369232492
17.048232940653477,0.45054657236639195
17.063791953767506,0.4357402078095314
17.079350966881528,0.4209338432526775
17.094909979995556,0.5697570445115699
17.11046899310958,0.7257021855786163
17.126028006223606,0.8816473266456626
17.14158701933763,1.0375924677127089
17.157146032451656,1.1935376087797553
17.17270504556568,1.3494827498468016
17.188264058679707,1.505427890913848
17.20382307179373,1.6562413757220282
17.219382084907757,1.7912977006121726
17.234941098021782,1.9263540255023173
17.250500111135807,2.0614103503924617
17.266059124249836,2.1964666752826374
17.281618137363857,2.331523000172751
17.297177150477886,2.466579325062926
17.31273616359191,2.601635649953071
17.328295176705936,2.5009007938404055
17.34385418981996,2.1937069722405944
17.359413202933986,1.8865131506407837
17.37497221604801,1.5793193290409724
17.390531229162036,1.2721255074411615
17.40609024227606,0.9649316858413507
17.421649255390086,0.6577378642415397
17.43720826850411,0.3505440426417287
17.452767281618137,0.6105200317442909
17.468326294732165,0.9945439600660191
17.483885307846187,1.3785678883875718
17.499444320960215,1.7625918167093
17.515003334074237,2.1466157450308527
17.530562347188265,2.530639673352581
17.54612136030229,2.9146636016742216
17.561680373416316,3.2364990156724676
17.57723938653034,3.044886316217346
17.592798399644366,2.853273616762225
17.60835741275839,2.6616609173071035
17.623916425872416,2.470048217851982
17.63947543898644,2.278435518396861
17.655034452100466,2.08682281894174
17.67059346521449,1.8952101194866182
17.686152478328516,1.8324229259556928
17.701711491442545,1.9666134323489963
17.717270504556566,2.100803938742238
17.732829517670595,2.2349944451355412
17.74838853078462,2.369184951528814
17.763947543898645,2.5033754579220866
17.77950655701267,2.6375659643153595
17.795065570126695,2.771756470708632
17.81062458324072,2.6401734654773166
17.826183596354745,2.3851838470438302
17.84174260946877,2.130194228610344
17.857301622582796,1.875204610176858
17.87286063569682,1.6202149917433717
17.888419648810846,1.3652253733098856
17.903978661924874,1.1102357548763413
17.919537675038896,0.8552461364429133
17.935096688152925,0.8819942623767287
17.95065570126695,0.91737186675293
17.966214714380975,0.9527494711291313
17.981773727495,0.9881270755053325
17.997332740609025,1.023504679881534
18.01289175372305,1.0588822842577352
18.028450766837075,1.0942598886339363
18.0440097799511,1.1468890317229448
18.059568793065125,1.2492224841141215
18.075127806179154,1.3515559365053218
18.090686819293175,1.4538893888964752
