angle,intensity
10.0,3.9092917442321777
10.015559013114025,3.9092917442321773
10.03111802622805,3.9092917442321777
10.046677039342075,3.9092917442321777
10.062236052456102,3.9092917442321777
10.077795065570127,3.9092917442321777
10.093354078684152,3.9092917442321777
10.108913091798177,3.9092917442321777
10.124472104912202,4.007768945283324
10.140031118026227,4.3503746946006565
10.155590131140253,4.692980443917989
10.17114914425428,5.03558619323536
10.186708157368304,5.378191942552692
10.20226717048233,5.720797691870024
10.217826183596355,6.063403441187356
10.23338519671038,6.4060091905046885
10.248944209824405,7.346173129122556
10.26450322293843,8.728242170556038
10.280062236052457,10.110311211989679
10.295621249166482,11.49238025342316
10.311180262280507,12.874449294856642
10.326739275394532,14.256518336290124
10.342298288508557,15.638587377723608
10.357857301622582,17.02065641915709
10.373416314736609,16.727500736807706
10.388975327850634,16.166847281256203
10.40453434096466,15.606193825704707
10.420093354078684,15.045540370153205
10.43565236719271,14.484886914601708
10.451211380306734,13.924233459050207
10.46677039342076,13.36358000349871
10.482329406534786,12.822659627082489
10.497888419648811,12.393785192845723
10.513447432762836,11.964910758608955
10.529006445876862,11.536036324372189
10.544565458990887,11.107161890135421
10.560124472104912,10.678287455898655
10.575683485218937,10.249413021661887
10.591242498332964,9.820538587425071
10.606801511446989,9.902656650408863
10.622360524561014,10.642784866026417
10.637919537675039,11.382913081643972
10.653478550789064,12.123041297261526
10.669037563903089,12.863169512879082
10.684596577017114,13.603297728496635
10.700155590131141,14.343425944114275
10.715714603245166,15.08355415973183
10.731273616359191,13.852323332113688
10.746832629473216,11.871662871069566
10.762391642587241,9.891002410025445
10.777950655701266,7.910341948981324
10.793509668815293,5.929681487936977
10.809068681929318,3.9490210268928556
10.824627695043343,1.9683605658487342
10.840186708157368,0.018816753661844786
10.855745721271393,0.6333312798316941
10.871304734385419,1.2478458060015438
10.886863747499444,1.8623603321713933
10.90242276061347,2.4768748583413127
10.917981773727496,3.0913893845111624
10.93354078684152,3.7059039106810117
10.949099799955546,4.320418436850861
10.96465881306957,5.246107084250622
10.980217826183596,6.8998566697225705
10.995776839297621,8.553606255194522
11.011335852411648,10.207355840666658
11.026894865525673,11.861105426138607
11.042453878639698,13.514855011610557
11.058012891753723,15.168604597082506
11.073571904867748,16.822354182554456
11.089130917981773,16.304800856815408
11.104689931095798,14.258698109678775
11.120248944209825,12.212595362541906
11.13580795732385,10.166492615405271
11.151366970437875,8.120389868268637
11.1669259835519,6.074287121132002
11.182484996665925,4.028184373995368
11.19804400977995,1.9820816268587342
11.213603022893977,1.8761476695414858
11.229162036008002,2.049161115671483
11.244721049122028,2.2221745618014803
11.260280062236053,2.395188007931478
11.275839075350078,2.568201454061475
11.291398088464103,2.7412149001914727
11.306957101578128,2.9142283463214698
11.322516114692153,3.2437652271021378
11.33807512780618,4.384562389858745
11.353634140920205,5.525359552615223
11.36919315403423,6.6661567153717005
11.384752167148255,7.806953878128178
11.40031118026228,8.947751040884656
11.415870193376305,10.088548203641134
11.431429206490332,11.229345366397741
11.446988219604357,11.380906808465218
11.462547232718382,10.319339381461713
11.478106245832407,9.257771954458208
11.493665258946432,8.196204527454704
11.509224272060457,7.134637100451197
11.524783285174482,6.0730696734476926
11.54034229828851,5.011502246444066
11.555901311402534,3.9499348194405615
11.57146032451656,3.3671741182724997
11.587019337630585,2.955678414503618
11.60257835074461,2.5441827107347366
11.618137363858635,2.1326870069658552
11.633696376972662,1.7211913031969268
11.649255390086687,1.3096955994280455
11.664814403200712,0.8981998956591641
11.680373416314737,0.5085110611325471
11.695932429428762,1.006378088977642
11.711491442542787,1.5042451168227366
11.727050455656812,2.002112144667832
11.742609468770837,2.4999791725129263
11.758168481884864,2.997846200358078
11.773727494998889,3.495713228203173
11.789286508112914,3.9935802560482676
11.80484552122694,4.249715654063688
11.820404534340964,3.971349645845399
11.83596354745499,3.692983637627111
11.851522560569016,3.414617629408791
11.867081573683041,3.1362516211905023
11.882640586797066,2.8578856129722143
11.898199599911091,2.579519604753926
11.913758613025117,2.301153596535638
11.929317626139142,2.0928140201979435
11.944876639253167,1.9313824196362184
11.960435652367194,1.7699508190744757
11.975994665481219,1.6085192185127513
11.991553678595244,1.4470876179510266
12.007112691709269,1.2856560173893024
12.022671704823294,1.1242244168275777
12.038230717937319,0.9627928162658531
12.053789731051346,0.9583627611462083
12.06934874416537,0.9740761924791214
12.084907757279396,0.9897896238120343
12.100466770393421,1.0055030551449473
12.116025783507446,1.0212164864778606
12.131584796621471,1.0369299178107736
12.147143809735496,1.0526433491436868
12.162702822849521,1.105271383895626
12.178261835963548,1.3334746480054405
12.193820849077573,1.5616779121152287
12.209379862191598,1.789881176225017
12.224938875305623,2.0180844403348055
12.240497888419648,2.2462877044445935
12.256056901533675,2.474490968554408
12.2716159146477,2.7026942326641965
12.287174927761725,2.999269861443724
12.30273394087575,3.375734817338773
12.318292953989776,3.752199773233823
12.3338519671038,4.128664729128872
12.349410980217826,4.50512968502392
12.36496999333185,4.881594640918971
12.380529006445876,5.25805959681402
12.396088019559903,5.634524552709111
12.411647032673928,5.207580190800661
12.427206045787953,4.510823575155319
12.442765058901978,3.8140669595099777
12.458324072016003,3.117310343864636
12.47388308513003,2.420553728219215
12.489442098244055,1.7237971125738731
12.50500111135808,1.0270404969285318
12.520560124472105,0.39299725089290544
12.53611913758613,1.4397035310730069
12.551678150700155,2.4864098112531083
12.56723716381418,3.5331160914332096
12.582796176928206,4.579822371613311
12.598355190042232,5.626528651793532
12.613914203156257,6.673234931973632
12.629473216270283,7.719941212153734
12.645032229384308,8.43070666103242
12.660591242498333,8.438655756368536
12.676150255612358,8.446604851704654
12.691709268726385,8.454553947040772
12.70726828184041,8.462503042376888
12.722827294954435,8.470452137713004
12.73838630806846,8.478401233049121
12.753945321182485,8.486350328385237
12.76950433429651,8.018203423989336
12.785063347410535,7.2467436659758
12.80062236052456,6.475283907962265
12.816181373638587,5.703824149948639
12.831740386752612,4.932364391935103
12.847299399866637,4.160904633921566
12.862858412980662,3.38944487590803
12.878417426094687,2.6179851178944937
12.893976439208714,2.427591500844121
12.90953545232274,2.3029982014717527
12.925094465436764,2.1784049020993854
12.94065347855079,2.0538116027270177
12.956212491664814,1.9292183033546495
12.97177150477884,1.8046250039822818
12.987330517892865,1.6800317046099138
13.00288953100689,1.5500320481506262
13.018448544120915,1.396327595233299
13.034007557234942,1.2426231423159542
13.049566570348967,1.0889186893986267
13.065125583462992,0.9352142364812995
13.080684596577017,0.7815097835639724
13.096243609691042,0.627805330646645
13.111802622805069,0.4741008777293002
13.127361635919094,0.3920315936821231
13.142920649033119,0.38972761991310967
13.158479662147144,0.3874236461440962
13.17403867526117,0.3851196723750828
13.189597688375194,0.38281569860606934
13.20515670148922,0.3805117248370559
13.220715714603244,0.3782077510680425
13.236274727717271,0.3759037772990288
13.251833740831296,0.49928988919485545
13.267392753945321,0.6622401571188918
13.282951767059346,0.8251904250429282
13.298510780173372,0.9881406929669645
13.314069793287398,1.1510909608910196
13.329628806401423,1.3140412288150558
13.345187819515449,1.4769914967390922
13.360746832629474,1.6321003423859022
13.376305845743499,1.6317627104782513
13.391864858857524,1.6314250785705997
13.407423871971549,1.6310874466629488
13.422982885085574,1.6307498147552975
13.438541898199599,1.630412182847646
13.454100911313626,1.630074550939995
13.469659924427651,1.6297369190323439
13.485218937541676,1.575293251312788
13.500777950655701,1.4136655711340718
13.516336963769726,1.2520378909553558
13.531895976883753,1.0904102107766211
13.547454989997778,0.928782530597905
13.563014003111803,0.767154850419189
13.578573016225828,0.6055271702404728
13.594132029339853,0.4438994900617566
13.609691042453878,0.5615739073856105
13.625250055567903,0.8483846778888579
13.640809068681929,1.135195448392105
13.656368081795955,1.422006218895385
13.67192709490998,1.708816989398632
13.687486108024006,1.9956277599018795
13.70304512113803,2.2824385304051265
13.718604134252056,2.569249300908374
13.734163147366083,2.355221523629387
13.749722160480108,2.0918226371008615
13.765281173594133,1.8284237505723355
13.780840186708158,1.5650248640438098
13.796399199822183,1.3016259775152839
13.811958212936208,1.038227090986758
13.827517226050233,0.774828204458232
13.843076239164258,0.6125593463913399
13.858635252278283,0.8606816410755991
13.87419426539231,1.1088039357598867
13.889753278506335,1.356926230444146
13.90531229162036,1.6050485251284052
13.920871304734385,1.8531708198126644
13.93643031784841,2.101293114496924
13.951989330962437,2.349415409181211
13.967548344076462,2.4769140006493493
13.983107357190487,2.4763996081440096
13.998666370304512,2.4758852156386704
14.014225383418538,2.475370823133331
14.029784396532563,2.474856430627992
14.045343409646588,2.474342038122652
14.060902422760613,2.4738276456173134
14.076461435874638,2.4733132531119737
14.092020448988665,2.7678596528685713
14.10757946210269,3.149263240510046
14.123138475216715,3.53066682815152
14.13869748833074,3.9120704157929937
14.154256501444767,4.293474003434512
14.169815514558792,4.674877591075985
14.185374527672817,5.05628117871746
14.200933540786842,5.390931610449896
14.216492553900867,4.993275105333378
14.232051567014892,4.59561860021686
14.247610580128917,4.197962095100342
14.263169593242942,3.8003055899838243
14.278728606356967,3.4026490848673063
14.294287619470992,3.0049925797507884
14.30984663258502,2.607336074634225
14.325405645699044,2.3444526112833977
14.34096465881307,2.3346900350618713
14.356523671927096,2.3249274588403432
14.372082685041121,2.315164882618816
14.387641698155146,2.305402306397289
14.403200711269172,2.295639730175762
14.418759724383197,2.2858771539542353
14.434318737497222,2.2761145777327085
14.449877750611247,2.265682077199306
14.465436763725272,2.2548643094885303
14.480995776839297,2.244046541777755
14.496554789953322,2.23322877406698
14.512113803067349,2.222411006356203
14.527672816181374,2.211593238645427
14.543231829295399,2.200775470934652
14.558790842409424,2.1899577032238766
14.574349855523451,3.015241934302521
14.589908868637476,3.911004888535399
14.605467881751501,4.806767842768277
14.621026894865526,5.702530797001155
14.636585907979551,6.598293751234033
14.652144921093576,7.494056705466911
14.667703934207601,8.38981965969979
14.683262947321627,8.877541604712608
14.698821960435652,7.827422929971996
14.714380973549677,6.777304255231384
14.729939986663704,5.727185580490652
14.745498999777729,4.67706690575004
14.761058012891754,3.626948231009429
14.77661702600578,2.5768295562686974
14.792176039119806,1.5267108815280857
14.80773505223383,1.1206785525001668
14.823294065347856,1.366167808275973
14.83885307846188,1.6116570640517793
14.854412091575906,1.8571463198275855
14.869971104689931,2.102635575603392
14.885530117803956,2.3481248313791983
14.901089130917981,2.593614087155004
14.916648144032006,2.8391033429308106
14.932207157146031,3.027286644688055
14.947766170260058,3.199734351801232
14.963325183374083,3.3721820589143894
14.978884196488108,3.544629766027547
14.994443209602135,3.717077473140724
15.01000222271616,3.8895251802538815
15.025561235830185,4.061972887367038
15.04112024894421,4.2260635251303995
15.056679262058235,4.2824447769289735
15.07223827517226,4.338826028727546
15.087797288286286,4.39520728052612
15.10335630140031,4.451588532324692
15.118915314514336,4.507969784123266
15.13447432762836,4.564351035921839
15.150033340742388,4.620732287720418
15.165592353856413,5.393867181763831
15.181151366970438,7.444341677848638
15.196710380084465,9.494816173933678
15.21226939319849,11.545290670018487
15.227828406312515,13.595765166103293
15.24338741942654,15.646239662188101
15.258946432540565,17.696714158272908
15.27450544565459,19.747188654357718
15.290064458768615,19.308358323963002
15.30562347188264,17.510627988683748
15.321182484996665,15.712897653404491
15.33674149811069,13.915167318125235
15.352300511224716,12.117436982845978
15.367859524338742,10.319706647566518
15.383418537452767,8.521976312287261
15.398977550566793,6.724245977008005
15.41453656368082,6.321014769108366
15.430095576794844,6.015828430226067
15.44565458990887,5.710642091343768
15.461213603022895,5.405455752461469
15.47677261613692,5.10026941357917
15.492331629250945,4.795083074696871
15.50789064236497,4.489896735814572
15.523449655478995,4.334344731429585
15.53900866859302,4.704145089427332
15.554567681707045,5.0739454474250785
15.570126694821072,5.443745805422866
15.585685707935097,5.813546163420614
15.601244721049122,6.183346521418361
15.616803734163147,6.553146879416106
15.632362747277174,6.9229472374138945
15.647921760391199,6.962277021727507
15.663480773505224,6.682976853225634
15.67903978661925,6.403676684723761
15.694598799733274,6.124376516221888
15.7101578128473,5.845076347720015
15.725716825961324,5.565776179218142
15.74127583907535,5.286476010716269
15.756834852189375,5.007175842214397
15.7723938653034,4.977151623509937
15.787952878417427,5.0107933261412905
15.803511891531452,5.044435028772639
15.819070904645477,5.078076731403987
15.834629917759504,5.111718434035341
15.850188930873529,5.145360136666691
15.865747943987554,5.1790018392980395
15.881306957101579,5.170768467167453
15.896865970215604,4.705853719979303
15.912424983329629,4.240938972791154
15.927983996443654,3.7760242256030043
15.94354300955768,3.3111094784148545
15.959102022671704,2.8461947312267046
15.97466103578573,2.3812799840385557
15.990220048899756,1.9163652368503528
16.00577906201378,1.9048128471366037
16.021338075127808,2.660489062379841
16.03689708824183,3.416165277622733
16.052456101355858,4.171841492865971
16.068015114469883,4.927517708109036
16.08357412758391,5.683193923352101
16.099133140697933,6.438870138595166
16.11469215381196,7.194546353838231
16.130251166925984,7.2663966531344295
16.14581018004001,6.984090794728866
16.161369193154034,6.7017849363233015
16.17692820626806,6.419479077917737
16.192487219382084,6.1371732195121735
16.20804623249611,5.85486736110661
16.223605245610138,5.572561502700982
16.23916425872416,5.290255644295482
16.254723271838188,5.007295815611559
16.270282284952213,4.724298876169653
16.285841298066238,4.441301936727749
16.301400311180263,4.1583049972858435
16.316959324294288,3.875308057843937
16.332518337408313,3.5923111184020327
16.34807735052234,3.3093141789601273
16.363636363636363,3.1776497668562187
16.37919537675039,3.542272341992968
16.394754389864413,3.906894917129717
16.41031340297844,4.271517492266465
16.425872416092467,4.636140067403298
16.44143142920649,5.000762642539963
16.456990442320517,5.365385217676796
16.472549455434542,5.730007792813545
16.488108468548567,6.09428716635189
16.503667481662593,6.458251222966618
16.519226494776618,6.8222152795813455
16.534785507890643,7.186179336196073
16.550344521004668,7.550143392810801
16.565903534118693,7.914107449425529
16.581462547232718,8.278071506040256
16.597021560346743,8.642035562654984
16.612580573460768,8.059042837082522
16.628139586574797,7.251823417088958
16.64369859968882,6.444603997095761
16.659257612802847,5.637384577102199
16.674816625916872,4.830165157108819
16.690375639030897,4.02294573711544
16.705934652144922,3.2157263171220603
16.721493665258947,2.5461263191799293
16.737052678372972,3.1717838447416407
16.752611691486997,3.7974413703033516
16.768170704601022,4.4230988958650626
16.783729717715048,5.0487564214267735
16.799288730829073,5.6744139469884844
16.814847743943098,6.300071472550195
16.830406757057123,6.925728998111906
16.845965770171148,7.152064059826957
16.861524783285176,6.736242917840005
16.877083796399198,6.320421775853243
16.892642809513227,5.904600633866291
16.90820182262725,5.488779491879435
16.923760835741277,5.072958349892578
16.939319848855302,4.657137207905722
16.954878861969327,4.2413160659188645
16.970437875083352,3.843722962134864
16.985996888197377,3.4550707035961157
17.001555901311402,3.066418445057367
17.017114914425427,2.6777661865186184
17.032673927539452,2.2891139279798702
17.048232940653477,1.9004616694411218
17.063791953767506,1.5118094109022848
17.079350966881528,1.123157152363625
17.094909979995556,2.047570441521881
17.11046899310958,3.029134611379774
17.126028006223606,4.010698781237666
17.14158701933763,4.992262951095559
17.157146032451656,5.973827120953452
17.17270504556568,6.955391290811344
17.188264058679707,7.936955460669237
17.20382307179373,8.41556036021891
17.219382084907757,7.349788696975201
17.234941098021782,6.284017033731491
17.250500111135807,5.218245370487782
17.266059124249836,4.15247370724383
17.281618137363857,3.086702044000364
17.297177150477886,2.0209303807564116
17.31273616359191,0.9551587175127023
17.328295176705936,0.5112799666202107
17.34385418981996,0.6119311967972436
17.359413202933986,0.7125824269742764
17.37497221604801,0.8132336571513095
17.390531229162036,0.9138848873283423
17.40609024227606,1.014536117505375
17.421649255390086,1.1151873476824081
17.43720826850411,1.215838577859441
17.452767281618137,1.5288676818864217
17.468326294732165,1.888346785701361
17.483885307846187,2.247825889516136
17.499444320960215,2.6073049933310752
17.515003334074237,2.966784097145851
17.530562347188265,3.32626320096079
17.54612136030229,3.6857423047756472
17.561680373416316,3.9751322446477295
17.57723938653034,3.685843800070869
17.592798399644366,3.3965553554940096
17.60835741275839,3.1072669109171493
17.623916425872416,2.817978466340289
17.63947543898644,2.5286900217634294
17.655034452100466,2.239401577186569
17.67059346521449,1.950113132609709
17.686152478328516,1.8657169366148025
17.701711491442545,2.0946065574962947
17.717270504556566,2.323496178377682
17.732829517670595,2.552385799259174
17.74838853078462,2.781275420140614
17.763947543898645,3.010165041022053
17.77950655701267,3.2390546619034932
17.795065570126695,3.467944282784933
17.81062458324072,3.519444766958068
17.826183596354745,3.4885781542515475
17.84174260946877,3.4577115415450272
17.857301622582796,3.426844928838507
17.87286063569682,3.3959783161319868
17.888419648810846,3.365111703425466
17.903978661924874,3.3342450907189387
17.919537675038896,3.3033784780124256
17.935096688152925,3.27210469589879
17.95065570126695,3.2408184424010775
17.966214714380975,3.209532188903365
17.981773727495,3.178245935405652
17.997332740609025,3.1469596819079397
18.01289175372305,3.1156734284102265
18.028450766837075,3.084387174912514
18.0440097799511,3.0318327174168216
18.059568793065125,2.9180013264593945
18.075127806179154,2.804169935501941
18.090686819293175,2.6903385445445394
18.106245832407204,2.576507153587086
18.121804845521226,2.4626757626296847
